1595538351.00
64.000000
-0.00
-0.00
-0.00
-0.00
-0.00
-0.00
-0.00
-0.00
-0.00
-0.00
0.00
0.01
0.01
-0.00
-0.03
-0.05
-0.05
0.00
0.13
0.36
0.66
1.01
1.37
1.72
2.06
2.40
2.79
3.24
3.80
4.42
5.06
5.66
6.20
6.68
7.15
7.68
8.31
9.14
10.09
11.04
11.88
12.56
13.14
13.76
14.65
15.96
17.91
20.32
22.90
25.38
27.58
29.57
31.68
34.32
37.81
42.54
48.15
54.10
59.83
64.97
69.58
74.14
79.34
85.71
93.76
103.00
112.62
121.73
129.77
136.75
143.30
150.75
157.77
166.64
177.95
191.79
206.97
220.57
228.25
225.36
208.53
176.87
132.76
80.05
23.07
-34.94
-92.44
-149.16
-205.23
-260.37
-313.74
-363.87
-409.83
-450.91
-486.50
-515.74
-537.23
-549.22
-549.96
-538.37
-514.21
-478.67
-433.88
-382.45
-327.02
-269.84
-212.63
-156.66
-102.95
-52.37
-5.90
35.58
71.42
101.35
125.50
144.39
158.72
169.19
176.40
180.74
182.49
181.89
179.23
174.89
169.28
162.81
155.79
148.46
140.93
133.25
125.49
117.71
110.01
102.47
95.15
88.07
81.21
74.55
68.08
61.85
55.92
50.39
45.30
40.63
36.29
32.14
28.07
24.05
20.16
16.56
13.43
10.88
8.84
7.11
5.40
3.46
1.22
-1.15
-3.33
-4.99
-5.93
-6.25
-6.32
-6.62
-7.55
-9.22
-11.37
-13.47
-15.01
-15.72
-15.65
-15.24
-14.97
-15.30
-16.53
-18.81
-22.13
-26.03
-29.45
-30.74
-28.17
-20.73
-8.86
5.44
19.23
29.84
35.87
37.61
36.49
34.20
31.78
29.43
26.84
23.83
20.69
18.05
16.44
15.94
16.02
15.94
15.03
13.13
10.57
7.99
6.02
4.99
4.83
5.14
5.41
5.22
4.40
3.09
1.69
0.68
0.42
1.07
2.47
4.31
6.18
7.84
9.20
10.31
11.27
12.12
12.88
13.48
13.93
14.25
14.55
14.93
15.46
16.12
16.79
17.32
17.49
17.11
16.07
14.31
11.91
9.10
5.98
2.74
-0.42
-3.40
-6.13
-8.64
-10.96
-13.08
-14.95
-16.49
-17.59
-18.17
-18.28
-17.99
-17.38
-16.57
-15.62
-14.63
-13.71
-12.96
-12.46
-12.19
-12.04
-11.90
-11.59
-10.96
-9.92
-8.40
-6.43
-4.10
-1.64
0.71
2.74
4.31
5.45
6.25
6.79
7.12
7.23
7.12
6.82
6.44
6.06
5.73
5.42
5.03
4.48
3.77
3.04
2.49
2.33
2.62
3.23
3.91
4.38
4.42
4.01
3.32
2.55
1.87
1.29
0.70
-0.06
-0.90
-1.81
-2.82
-3.95
-5.26
-6.77
-8.44
-10.18
-11.91
-13.58
-15.26
-17.01
-18.79
-20.39
-21.48
-21.70
-20.83
-18.82
-15.85
-12.23
-8.26
-4.13
0.07
4.28
8.39
12.18
15.42
17.90
19.53
20.39
20.65
20.50
20.08
19.48
18.73
17.94
17.23
16.69
16.32
15.98
15.40
14.39
12.87
11.00
9.05
7.28
5.76
4.38
2.89
1.08
-1.12
-3.57
-6.09
-8.47
-10.63
-12.58
-14.39
-16.17
-17.95
-19.76
-21.57
-23.35
-24.97
-26.30
-27.16
-27.40
-26.90
-25.58
-23.46
-20.57
-17.04
-13.05
-8.81
-4.55
-0.45
3.35
6.75
9.68
12.02
13.70
14.66
14.98
14.84
14.50
14.20
14.08
14.16
14.28
14.27
13.97
13.34
12.44
11.41
10.38
9.47
8.71
8.07
7.47
6.76
5.82
4.51
2.78
0.69
-1.65
-4.03
-6.35
-8.56
-10.73
-12.95
-15.26
-17.61
-19.88
-21.96
-23.73
-25.11
-25.93
-25.99
-25.03
-22.79
-19.22
-14.46
-8.95
-3.24
2.09
6.63
10.21
12.89
14.84
16.26
17.30
17.97
18.29
18.28
18.03
17.69
17.34
16.97
16.52
15.89
15.07
14.13
13.20
12.38
11.65
10.89
9.91
8.60
6.98
5.19
3.42
1.82
0.46
-0.78
-2.03
-3.47
-5.14
-6.98
-8.84
-10.63
-12.30
-13.95
-15.78
-17.95
-20.44
-23.05
-25.37
-26.91
-27.30
-26.39
-24.25
-21.15
-17.36
-13.15
-8.71
-4.22
0.09
3.97
7.20
9.64
11.34
12.49
13.32
14.01
14.57
14.92
14.93
14.58
13.99
13.35
12.90
12.73
12.83
13.03
13.09
12.81
12.11
11.04
9.75
8.48
7.34
6.37
5.40
4.26
2.79
1.00
-0.94
-2.81
-4.43
-5.82
-7.14
-8.62
-10.43
-12.63
-15.14
-17.80
-20.43
-22.83
-24.77
-26.00
-26.31
-25.56
-23.81
-21.24
-18.12
-14.69
-11.13
-7.58
-4.06
-0.62
2.64
5.58
8.01
9.77
10.82
11.25
11.35
11.43
11.76
12.44
13.36
14.29
14.99
15.31
15.23
14.80
14.14
13.35
12.49
11.60
10.65
9.56
8.31
6.87
5.30
3.66
2.00
0.31
-1.44
-3.29
-5.25
-7.26
-9.28
-11.29
-13.32
-15.47
-17.83
-20.43
-23.15
-25.72
-27.74
-28.80
-28.59
-27.06
-24.41
-21.00
-17.29
-13.59
-10.06
-6.73
-3.56
-0.49
2.45
5.19
7.61
9.59
11.07
12.06
12.68
13.09
13.49
13.95
14.48
14.98
15.38
15.70
15.98
16.23
16.37
16.24
15.71
14.80
13.73
12.77
12.12
11.74
11.38
10.72
9.50
7.69
5.46
3.12
0.93
-0.95
-2.55
-3.98
-5.47
-7.20
-9.26
-11.61
-13.99
-16.04
-17.35
-17.64
-16.80
-14.88
-12.09
-8.65
-4.80
-0.75
3.34
7.29
10.97
14.26
17.06
19.35
21.11
22.41
23.38
24.23
25.21
26.55
28.44
30.93
33.90
37.12
40.29
43.10
45.29
46.73
47.42
47.44
46.93
45.96
44.41
42.06
38.52
33.48
26.78
18.47
8.90
-1.41
-11.85
-21.88
-31.11
-39.39
-46.81
-53.65
-60.19
-66.53
-72.44
-77.35
-80.56
-81.49
-79.94
-76.12
-70.55
-63.79
-56.29
-48.30
-39.97
-31.48
-23.11
-15.18
-7.96
-1.51
4.28
9.63
14.63
19.16
22.78
24.89
24.87
22.34
17.21
9.74
0.40
-10.11
-20.94
-31.13
-39.75
-46.02
-49.52
-50.20
-48.40
-44.66
-39.65
-34.02
-28.40
-23.38
-19.43
-16.82
-15.57
-15.42
-15.93
-16.62
-17.10
-17.18
-16.78
-15.97
-14.79
-13.18
-10.93
-7.72
-3.36
2.10
8.33
14.84
21.21
27.33
33.40
39.70
46.35
53.09
59.32
64.32
67.60
69.00
68.67
66.93
63.98
59.84
54.45
47.82
40.16
31.90
23.62
15.93
9.42
4.61
1.88
1.39
2.83
5.39
7.81
8.77
7.42
3.70
-1.60
-7.24
-12.16
-15.88
-18.67
-21.22
-24.20
-27.90
-32.24
-36.94
-41.76
-46.61
-51.44
-56.07
-60.07
-62.89
-64.10
-63.53
-61.39
-58.14
-54.28
-50.19
-46.03
-41.74
-37.09
-31.78
-25.54
-18.30
-10.28
-2.00
5.77
12.23
16.85
19.45
20.28
19.85
18.74
17.31
15.59
13.30
10.01
5.35
-0.78
-8.14
-16.19
-24.28
-31.78
-38.32
-43.85
-48.59
-52.93
-57.14
-61.05
-63.91
-64.39
-60.97
-52.43
-38.34
-19.34
2.98
26.29
48.09
66.20
79.19
86.66
89.22
88.24
85.37
82.05
79.08
76.67
74.51
72.16
69.20
65.32
60.27
53.88
46.13
37.34
28.22
19.78
13.05
8.79
7.36
8.66
12.35
17.87
24.62
31.95
39.25
45.98
51.84
56.72
60.72
63.92
66.37
67.96
68.51
67.91
66.23
63.75
60.88
58.10
55.81
54.21
53.33
53.00
53.07
53.42
54.04
55.02
56.34
57.79
59.08
59.96
60.50
61.26
63.17
67.07
73.26
81.20
89.53
96.41
100.13
99.46
93.96
83.98
70.61
55.57
41.01
29.10
21.50
18.60
19.16
20.58
19.64
13.75
2.01
-14.43
-32.88
-50.27
-64.39
-74.51
-81.32
-86.22
-90.56
-94.98
-99.28
-102.73
-104.50
-104.17
-101.63
-97.04
-90.78
-83.43
-75.67
-68.21
-61.60
-56.15
-52.30
-50.06
-49.19
-49.61
-51.80
-56.75
-65.55
-78.66
-95.56
-115.61
-137.06
-157.68
-175.47
-189.30
-198.90
-204.46
-206.26
-204.61
-201.42
-198.09
-195.17
-192.42
-189.28
-185.18
-179.68
-172.52
-163.77
-155.47
-148.32
-141.26
-131.88
-117.88
-98.31
-74.15
-48.30
-13.72
28.56
71.91
108.33
133.89
149.31
157.06
159.18
157.26
153.31
147.37
141.89
139.51
141.64
147.49
154.51
159.89
161.79
159.81
153.33
142.34
128.38
113.72
100.48
89.88
82.50
78.38
77.06
76.82
76.18
74.30
70.94
66.34
61.09
56.02
51.91
49.02
46.50
43.32
38.82
32.92
26.15
19.31
13.10
7.83
3.27
-1.17
-5.97
-11.09
-16.06
-20.28
-23.16
-24.31
-23.61
-21.34
-18.20
-15.37
-14.20
-15.76
-20.30
-27.05
-34.58
-41.46
-47.12
-52.01
-57.40
-64.78
-75.24
-89.11
-105.82
-123.90
-141.09
-155.16
-164.32
-168.16
-167.79
-165.33
-162.51
-159.37
-153.83
-142.26
-121.90
-91.70
-53.13
-9.83
33.55
72.44
103.13
123.19
132.23
130.78
121.08
106.05
88.19
68.92
48.68
27.64
6.69
-11.49
-24.48
-29.52
-25.11
-11.65
8.93
34.09
61.34
85.21
108.18
129.59
149.55
168.16
184.88
199.13
210.74
219.94
226.94
231.97
233.52
229.99
219.83
201.38
174.71
141.93
106.60
72.31
41.98
16.42
-4.32
-20.80
-35.19
-49.08
-62.87
-76.04
-88.31
-100.10
-112.88
-127.83
-145.46
-167.13
-192.42
-218.48
-240.86
-255.69
-261.32
-258.44
-249.15
-224.72
-183.51
-132.26
-82.53
-43.07
-17.10
-4.12
-1.10
-3.31
-6.89
-9.22
-8.95
-6.10
-1.79
1.11
-1.55
-12.64
-32.81
-59.65
-90.90
-123.43
-154.15
-180.64
-197.29
-202.79
-199.40
-190.66
-178.50
-163.82
-146.43
-128.45
-108.37
-85.84
-62.05
-38.15
-15.01
6.65
21.11
24.04
14.17
-5.00
-26.60
-42.95
-47.87
-38.67
-16.69
13.71
48.00
82.77
116.46
147.95
175.65
197.77
212.69
219.57
218.71
212.27
203.58
196.59
194.27
197.44
204.46
211.63
214.71
210.67
199.27
182.42
162.86
142.26
120.59
96.84
70.48
42.56
15.80
-6.19
-20.61
-26.27
-23.63
-13.99
1.17
20.25
41.15
60.86
76.04
84.19
85.23
82.46
81.97
90.09
110.29
141.15
176.62
208.60
229.81
235.96
226.19
201.71
163.98
113.90
52.63
-16.34
-85.80
-146.48
-189.93
-211.11
-209.54
-188.96
-155.67
-116.87
-78.75
-45.00
-17.77
1.99
15.24
24.77
33.82
44.33
55.39
64.63
70.55
72.46
70.49
66.57
63.46
62.84
63.95
63.06
49.91
20.98
-19.00
-60.41
-93.84
-114.18
-121.21
-118.33
-113.71
-112.67
-117.35
-129.01
-149.28
-177.46
-210.25
-243.55
-267.93
-277.13
-266.93
-237.15
-186.82
-130.81
-91.14
-82.34
-104.26
-141.71
-179.81
-208.28
-217.96
-207.81
-183.93
-153.32
-120.37
-86.71
-52.55
-19.26
11.85
39.55
62.24
78.56
89.72
99.16
110.16
124.11
139.40
153.58
164.53
170.46
170.27
164.68
155.69
145.30
134.75
124.05
113.10
101.81
89.68
76.06
60.99
45.37
30.54
17.62
6.85
-2.21
-10.54
-19.23
-28.88
-39.09
-48.54
-55.52
-58.43
-56.05
-47.70
-33.40
-14.20
7.63
28.83
45.65
54.71
53.98
43.46
25.30
3.38
-17.72
-33.90
-42.52
-42.79
-35.65
-23.12
-7.52
8.91
24.01
35.49
40.78
37.38
23.72
0.01
-31.15
-65.09
-95.95
-118.19
-127.83
-123.54
-106.83
-81.63
-53.38
-27.79
-9.74
-2.46
-7.20
-23.16
-47.73
-76.88
-105.87
-130.06
-145.59
-149.71
-140.69
-117.76
-81.35
-33.76
20.27
73.61
118.15
146.92
156.07
145.69
119.38
83.23
44.72
11.53
-9.77
-15.24
-4.77
17.90
47.00
77.16
105.59
131.84
156.15
176.88
189.35
187.74
168.58
133.86
91.26
51.03
21.36
5.23
0.31
1.70
5.19
8.92
12.63
15.76
15.99
9.89
-4.56
-25.55
-46.90
-60.26
-59.03
-41.77
-12.94
19.22
46.48
63.65
69.60
66.66
58.89
50.19
43.23
39.38
39.01
42.14
48.41
56.92
66.51
76.08
84.89
92.49
98.92
104.75
111.64
121.59
135.50
152.50
169.56
182.28
186.38
179.77
163.44
141.46
118.26
95.88
73.42
48.24
18.31
-16.13
-52.29
-86.44
-114.77
-131.45
-133.48
-123.56
-108.22
-92.68
-78.95
-66.67
-57.33
-49.65
-43.31
-39.18
-38.35
-42.74
-53.28
-70.66
-91.68
-115.14
-139.69
-164.21
-186.94
-205.20
-217.90
-223.51
-220.90
-210.39
-195.20
-179.58
-168.72
-166.39
-173.91
-192.53
-219.76
-249.98
-276.22
-293.38
-298.34
-291.36
-274.12
-233.25
-168.65
-92.63
-22.41
31.10
63.29
81.47
91.71
98.66
105.80
111.22
113.58
112.66
109.67
104.70
97.61
88.13
78.11
70.87
67.49
68.65
74.29
84.44
97.07
109.68
120.39
130.20
142.36
159.14
181.97
210.46
242.98
274.22
297.04
305.04
295.60
270.06
231.70
184.86
124.42
55.11
-12.13
-66.17
-101.55
-118.64
-121.30
-115.05
-106.50
-98.93
-92.12
-85.63
-79.23
-72.77
-65.89
-58.37
-50.38
-43.00
-37.24
-32.65
-29.01
-26.44
-25.18
-25.32
-26.76
-29.38
-32.86
-36.44
-38.58
-38.51
-36.53
-33.61
-30.81
-28.94
-28.46
-29.42
-31.44
-33.70
-35.67
-37.24
-38.44
-39.22
-39.39
-38.75
-37.29
-35.19
-32.83
-30.80
-29.70
-29.84
-31.10
-33.12
-35.50
-38.01
-40.56
-43.12
-45.41
-46.96
-47.09
-45.14
-40.75
-33.86
-24.75
-13.95
-2.08
10.12
21.87
32.47
41.31
48.05
52.67
55.41
56.62
56.64
55.72
53.99
51.56
48.50
44.93
40.96
36.74
32.48
28.39
24.66
21.42
18.64
16.16
13.71
11.05
8.04
4.67
1.05
-2.69
-6.44
-10.13
-13.76
-17.36
-20.94
-24.50
-27.95
-31.22
-34.15
-36.63
-38.60
-40.12
-41.38
-42.67
-44.27
-46.33
-48.70
-50.97
-52.51
-52.64
-50.86
-47.01
-41.31
-34.31
-26.79
-19.48
-12.99
-7.56
-3.09
0.83
4.63
8.56
12.49
15.99
18.52
19.75
19.81
19.21
18.62
18.53
19.08
20.11
21.34
22.61
23.92
25.27
26.55
27.43
27.55
26.73
25.15
23.29
21.76
20.92
20.69
20.60
20.01
18.53
16.20
13.55
11.24
9.75
9.01
8.42
7.21
4.82
1.26
-2.87
-6.67
-9.35
-10.50
-10.12
-8.43
-5.62
-1.83
2.80
7.92
12.92
17.01
19.53
20.20
19.25
17.29
15.05
13.04
11.50
10.41
9.70
9.38
9.53
10.17
11.14
12.10
12.66
12.59
11.97
11.15
10.52
10.30
10.38
10.36
9.82
8.54
6.61
4.38
2.27
0.56
-0.66
-1.54
-2.28
-3.01
-3.77
-4.56
-5.37
-6.27
-7.36
-8.74
-10.50
-12.66
-15.18
-17.98
-20.81
-23.29
-24.97
-25.41
-24.40
-22.05
-18.82
-15.32
-12.14
-9.63
-7.84
-6.55
-5.41
-4.06
-2.28
0.03
2.74
5.59
8.20
10.22
11.47
11.95
11.93
11.78
11.85
12.32
13.15
14.15
15.08
15.80
16.27
16.50
16.48
16.12
15.32
14.06
12.47
10.86
9.61
9.03
9.14
9.70
10.27
10.30
9.41
7.42
4.47
0.92
-2.76
-6.11
-8.77
-10.55
-11.38
-11.31
-10.42
-8.84
-6.70
-4.16
-1.42
1.25
3.54
5.16
5.91
5.80
5.00
3.83
2.61
1.60
0.92
0.56
0.51
0.80
1.53
2.81
4.64
6.84
9.04
10.73
11.38
10.61
8.38
5.18
2.03
0.35
1.58
6.71
15.89
28.30
42.45
56.64
69.45
80.00
87.84
92.65
93.98
91.26
83.98
72.00
55.80
36.57
16.14
-3.09
-18.45
-27.37
-27.91
-19.43
-2.97
18.70
41.66
61.73
75.56
81.32
78.88
69.53
55.22
38.06
19.81
1.86
-14.69
-28.82
-39.69
-46.74
-49.91
-49.78
-47.30
-43.52
-39.11
-34.31
-28.99
-23.03
-16.61
-10.30
-4.88
-0.94
1.31
2.18
2.25
2.04
1.78
1.37
0.52
-1.06
-3.44
-6.57
-10.22
-14.13
-17.97
-21.36
-23.91
-25.31
-25.49
-24.65
-23.16
-21.50
-19.99
-18.76
-17.70
-16.56
-15.03
-12.93
-10.23
-7.16
-4.11
-1.52
0.29
1.29
1.71
1.91
2.11
2.25
2.05
1.17
-0.51
-2.83
-5.37
-7.71
-9.63
-11.18
-12.61
-14.19
-16.14
-18.46
-21.09
-23.92
-26.87
-29.85
-32.76
-35.45
-37.76
-39.59
-40.98
-42.10
-43.16
-44.35
-45.70
-47.14
-48.48
-49.51
-50.08
-50.09
-49.57
-48.57
-47.19
-45.54
-43.68
-41.58
-39.07
-35.96
-32.07
-27.32
-21.86
-15.95
-9.87
-3.86
1.97
7.57
12.93
17.93
22.40
26.19
29.22
31.57
33.40
34.83
35.91
36.54
36.50
35.57
33.57
30.49
26.45
21.79
16.94
12.32
8.30
5.14
3.02
2.03
2.23
3.55
5.73
8.31
10.63
11.99
11.85
10.03
6.70
2.38
-2.29
-6.57
-9.84
-11.57
-11.46
-9.48
-5.92
-1.42
3.27
7.37
10.33
11.86
12.01
11.06
9.46
7.68
6.17
5.19
4.82
4.96
5.36
5.79
6.06
6.06
5.75
5.13
4.20
3.00
1.60
0.13
-1.24
-2.38
-3.23
-3.81
-4.19
-4.50
-4.86
-5.41
-6.23
-7.36
-8.70
-10.05
-11.09
-11.56
-11.31
-10.36
-8.85
-7.00
-4.96
-2.82
-0.57
1.78
4.18
6.55
8.77
10.77
12.52
14.01
15.21
16.04
16.42
16.30
15.73
14.83
13.68
12.22
10.30
7.73
4.45
0.63
-3.28
-6.74
-9.26
-10.54
-10.53
-9.35
-7.18
-4.29
-1.05
1.95
3.98
4.36
2.82
-0.43
-4.59
-8.68
-11.84
-13.63
-14.06
-13.45
-12.22
-10.70
-9.18
-7.86
-6.96
-6.66
-7.00
-7.85
-8.94
-10.00
-10.89
-11.67
-12.54
-13.73
-15.35
-17.38
-19.71
-22.24
-25.02
-28.27
-32.25
-37.06
-42.49
-47.93
-52.51
-55.45
-56.30
-55.02
-51.83
-46.93
-40.39
-32.13
-22.13
-10.55
2.20
15.58
29.08
42.25
54.57
65.32
73.51
78.11
78.36
74.15
66.16
55.65
44.22
33.39
24.32
17.74
13.92
12.73
13.73
16.30
19.86
23.84
27.79
31.29
33.92
35.26
35.05
33.32
30.38
26.81
23.23
20.06
17.50
15.51
13.94
12.66
11.65
10.89
10.34
9.92
9.45
8.85
8.03
7.04
5.93
4.76
3.53
2.23
0.82
-0.63
-2.01
-3.15
-3.94
-4.39
-4.63
-4.86
-5.27
-5.97
-6.93
-8.03
-9.15
-10.17
-11.04
-11.73
-12.21
-12.40
-12.25
-11.74
-10.92
-9.91
-8.85
-7.91
-7.30
-7.24
-7.83
-9.08
-10.78
-12.61
-14.25
-15.46
-16.13
-16.26
-15.89
-15.03
-13.74
-12.07
-10.17
-8.14
-6.09
-4.04
-2.01
-0.14
1.39
2.38
2.77
2.67
2.33
1.92
1.43
0.67
-0.57
-2.30
-4.25
-5.97
-6.98
-6.98
-5.94
-3.99
-1.29
2.05
5.97
10.27
14.54
18.19
20.62
21.51
20.96
19.61
18.31
17.85
18.59
20.43
22.85
25.25
27.23
28.68
29.81
30.97
32.45
34.29
36.26
37.88
38.56
37.77
35.29
31.32
26.52
21.83
18.23
16.37
16.36
17.77
19.90
22.13
24.35
27.05
31.18
37.74
47.21
59.14
71.98
83.13
89.37
87.47
75.07
51.72
19.51
-16.98
-51.79
-79.36
-96.33
-102.55
-100.62
-94.40
-87.17
-80.51
-74.24
-67.32
-58.98
-49.27
-39.03
-29.18
-20.23
-12.20
-4.91
1.58
6.83
10.16
11.05
9.52
6.23
2.29
-1.16
-3.31
-3.96
-3.55
-2.92
-2.93
-4.12
-6.47
-9.43
-12.21
-14.11
-14.82
-14.49
-13.61
-12.75
-12.36
-12.59
-13.37
-14.47
-15.62
-16.59
-17.27
-17.59
-17.56
-17.17
-16.40
-15.17
-13.45
-11.28
-8.78
-6.19
-3.72
-1.57
0.20
1.60
2.68
3.49
4.11
4.65
5.21
5.83
6.44
6.87
6.97
6.68
6.20
5.90
6.18
7.22
8.93
10.94
12.81
14.19
14.88
14.83
13.98
12.32
9.81
6.54
2.75
-1.24
-5.07
-8.52
-11.53
-14.19
-16.62
-18.94
-21.16
-23.24
-25.08
-26.64
-27.88
-28.68
-28.93
-28.54
-27.54
-25.95
-23.90
-21.49
-18.88
-16.17
-13.36
-10.43
-7.46
-4.70
-2.52
-1.27
-1.07
-1.76
-2.89
-3.60
-3.17
-1.31
1.62
4.91
7.75
9.64
10.41
10.24
10.08
10.77
12.54
14.95
17.27
18.94
19.78
19.91
19.63
20.54
23.85
29.59
36.34
42.11
45.35
45.54
43.05
38.95
36.63
38.91
46.54
57.83
69.95
80.53
88.50
93.83
97.28
102.80
113.88
131.68
154.44
178.92
202.15
222.14
237.55
232.67
199.15
140.91
73.96
15.81
-24.17
-46.16
-56.50
-62.30
-72.08
-87.94
-108.19
-129.34
-148.00
-161.43
-168.05
-165.19
-153.00
-134.72
-113.40
-92.28
-74.27
-61.32
-53.85
-50.84
-50.57
-51.79
-53.61
-54.27
-52.53
-48.69
-44.52
-42.32
-43.50
-47.65
-52.82
-56.11
-54.94
-48.64
-39.27
-30.56
-26.40
-29.73
-41.98
-63.21
-87.21
-105.97
-111.92
-102.12
-78.78
-47.87
-17.01
6.88
19.87
22.61
17.85
10.94
5.34
2.29
1.01
-0.17
-2.34
-5.03
-6.56
-5.92
-1.73
4.65
10.80
14.43
14.32
10.75
5.27
-0.14
-4.47
-7.75
-11.19
-15.71
-21.35
-27.18
-31.81
-33.85
-32.45
-27.48
-19.16
-8.14
4.83
18.68
31.66
41.52
46.51
46.06
41.05
33.51
25.46
18.47
13.09
8.91
4.93
0.63
-3.85
-7.84
-10.71
-12.10
-11.94
-10.33
-7.49
-3.83
0.90
7.40
16.66
29.40
44.83
60.76
74.87
86.30
95.80
105.82
118.61
134.74
152.06
166.88
175.58
176.00
170.46
158.88
141.91
120.45
95.62
68.49
41.18
16.49
-2.98
-15.97
-23.69
-28.64
-34.43
-40.53
-47.39
-54.70
-61.58
-67.12
-70.67
-72.39
-72.35
-70.82
-68.42
-66.72
-67.21
-71.06
-78.53
-88.65
-99.65
-109.19
-115.62
-118.69
-120.17
-122.56
-128.40
-139.52
-156.44
-178.44
-203.50
-228.78
-250.85
-266.23
-271.24
-263.13
-241.05
-206.50
-163.25
-116.36
-71.04
-31.28
0.94
26.26
46.40
63.07
77.49
90.48
102.88
115.77
130.33
147.22
166.49
186.03
202.05
210.54
209.07
197.88
179.85
159.31
136.74
114.98
97.84
87.93
84.55
83.84
80.40
69.32
48.05
17.82
-15.88
-46.04
-66.66
-75.03
-72.32
-62.63
-50.90
-40.91
-34.77
-30.58
-26.07
-19.56
-10.50
0.47
11.43
19.51
21.36
14.33
-2.37
-27.02
-55.31
-81.40
-99.66
-106.39
-100.87
-85.15
-61.12
-33.26
-6.63
14.58
27.66
31.47
26.44
14.54
-0.74
-15.07
-24.63
-27.10
-22.50
-13.15
-2.59
5.96
10.77
11.99
11.07
9.59
8.78
9.08
10.15
11.20
11.39
10.22
7.68
4.14
0.11
-3.73
-6.81
-8.79
-9.68
-9.82
-9.77
-10.13
-11.41
-13.90
-17.42
-21.47
-25.43
-28.85
-31.67
-34.17
-36.76
-39.77
-43.34
-47.40
-51.75
-56.17
-60.42
-64.25
-67.41
-69.60
-70.50
-69.73
-66.86
-61.56
-53.81
-44.07
-33.33
-22.80
-13.43
-5.55
1.22
7.65
14.41
21.74
29.36
36.86
44.03
50.98
58.01
65.30
72.71
79.77
85.96
90.95
94.77
97.67
99.91
101.51
102.25
101.77
99.91
96.82
92.94
88.82
84.87
81.17
77.51
73.54
68.98
63.76
57.96
51.81
45.43
38.83
31.90
24.58
16.98
9.50
2.70
-2.85
-6.77
-9.03
-9.88
-9.76
-9.04
-7.94
-6.49
-4.59
-2.21
0.56
3.47
6.16
8.25
9.41
9.49
8.50
6.66
4.28
1.66
-0.97
-3.54
-6.08
-8.65
-11.29
-13.98
-16.63
-19.14
-21.45
-23.52
-25.39
-27.04
-28.38
-29.27
-29.51
-28.92
-27.46
-25.22
-22.39
-19.25
-16.07
-13.11
-10.64
-8.93
-8.24
-8.66
-10.08
-12.09
-14.15
-15.69
-16.41
-16.22
-15.29
-13.84
-11.99
-9.74
-7.05
-4.00
-0.77
2.32
4.95
6.90
8.15
8.88
9.36
9.93
10.77
11.98
13.42
14.91
16.21
17.20
17.94
18.61
19.38
20.29
21.17
21.72
